D,KST,KST Signal
20141231,-18.724491,-26.083411
20141230,-22.154864,-27.434535
20141229,-25.010079,-28.066395
20141226,-26.58149,-28.06509
20141224,-26.477204,-27.77409
20141223,-26.549606,-27.51037
20141222,-27.459973,-27.63262
20141219,-30.679903,-27.953447
20141218,-31.113087,-28.339912
20141217,-30.884606,-29.108957
20141216,-27.841606,-30.455231
20141215,-24.998333,-32.711615
20141212,-23.962493,-35.850188
20141211,-24.103723,-39.411547
20141210,-27.649858,-43.277436
20141209,-30.347413,-47.169602
20141208,-34.158088,-51.252586
20141205,-38.034492,-55.317556
20141204,-43.001074,-59.441109
20141203,-48.149064,-63.65928
20141202,-53.24549,-67.936203
20141201,-56.014721,-72.351301
20141128,-58.896723,-77.14728
20141126,-62.679355,-82.326609
20141125,-67.09427,-87.646213
20141124,-70.742819,-92.992353
20141121,-75.146465,-98.459237
20141120,-80.964612,-103.914472
20141119,-86.641373,-109.154714
20141118,-92.981369,-113.744366
20141117,-99.178532,-117.599448
20141114,-105.510686,-120.717484
20141113,-110.555789,-123.070201
20141112,-115.209528,-124.630512
20141111,-119.94478,-124.859461
20141110,-124.243575,-123.830551
20141107,-128.126798,-121.436056
20141106,-127.948233,-117.680684
20141105,-127.677108,-112.855669
20141104,-127.240855,-106.911512
20141103,-126.685139,-99.888797
20141031,-124.598594,-91.61535
20141030,-117.27007,-82.402163
20141029,-110.684583,-72.942112
20141028,-102.693128,-63.804596
20141027,-94.328448,-55.141597
20141024,-84.523099,-46.992861
20141023,-74.179688,-39.513769
20141022,-64.036424,-32.720026
20141021,-52.224119,-26.647895
20141020,-41.679911,-21.574335
20141017,-32.129608,-17.434835
20141016,-28.446941,-14.009027
20141015,-24.726132,-10.780642
20141014,-20.98983,-7.739384
20141013,-17.211265,-4.838261
20141010,-13.036001,-2.141149
20141009,-9.387246,0.139479
20141008,-6.562082,2.07086
20141007,-4.424409,3.703398
20141006,-1.29734,5.210645
20141003,0.608524,6.345845
20141002,2.64519,7.241864
20141001,5.12028,7.825496
20140930,7.062743,8.046818
20140929,7.489651,7.947523
20140926,7.995187,7.882735
20140925,8.130752,7.732914
20140924,9.140815,7.624231
20140923,8.91946,7.531282
20140922,8.672698,7.511827
20140919,7.897881,7.603866
20140918,7.112175,7.806043
20140917,6.169085,8.017421
20140916,6.906561,8.191202
20140915,6.646802,8.152765
20140912,7.152602,8.020199
20140911,8.304277,7.718658
20140910,8.744365,7.063564
20140909,9.501045,6.117288
20140908,9.717478,4.925358
20140905,9.014578,3.504022
20140904,7.733111,2.18303
20140903,6.560628,0.963674
20140902,5.453705,-0.2363
20140829,4.438733,-1.229198
20140828,2.408432,-1.911607
20140827,0.227879,-2.055386
20140826,-1.226324,-1.538793
20140825,-3.074544,-0.355536
20140822,-2.874354,1.546185
20140821,-3.24109,3.958226
20140820,-4.239137,6.901015
20140819,-3.482373,10.458499
20140818,-1.702951,14.611794
20140815,1.114417,19.12602
20140814,4.87722,23.766368
20140813,9.422991,28.225378
20140812,14.040943,32.489197
20140811,18.834015,36.414454
20140808,23.244008,39.82413
20140807,27.778224,42.431958
20140806,33.89728,44.259705
20140805,38.925084,45.094461
20140804,42.877544,45.01444
20140801,45.008315,44.178417
20140731,47.797362,42.580317
20140730,49.368258,40.362778
20140729,49.521092,37.556433
20140728,46.714464,34.271766
20140725,44.227946,30.714653
20140724,41.410082,26.886412
20140723,38.204898,22.773941
20140722,35.353334,18.479396
20140721,30.625413,14.036502
20140718,27.839517,9.592036
20140717,24.111152,5.052841
20140716,19.959084,0.449253
20140715,14.700453,-4.221134
20140714,9.773771,-8.754988
20140711,4.397849,-13.079988
20140710,-0.446007,-16.771058
20140709,-4.632711,-19.91767
20140708,-9.374781,-22.632585
20140707,-13.013244,-24.872805
20140703,-17.321133,-26.696124
20140702,-22.074405,-27.925431
20140701,-26.104232,-28.597811
20140630,-29.151224,-28.919501
20140627,-28.821789,-29.187948
20140626,-28.765507,-29.614416
20140625,-29.066947,-30.06669
20140624,-29.536765,-30.588735
20140623,-29.423113,-31.034771
20140620,-28.384895,-31.575129
20140619,-28.12583,-32.254819
20140618,-28.999438,-33.073496
20140617,-31.567252,-33.990604
20140616,-32.659999,-34.752353
20140613,-32.83597,-35.363982
20140612,-33.76535,-35.757757
20140611,-33.551096,-35.924712
20140610,-34.286327,-36.020141
20140609,-34.502112,-35.830927
20140606,-35.49392,-35.140385
20140605,-37.253409,-33.888799
20140604,-38.422994,-32.177441
20140603,-38.164656,-30.064243
20140602,-36.379949,-27.666797
20140530,-35.267942,-25.076438
20140529,-34.409962,-22.230887
20140528,-32.583401,-19.255896
20140527,-28.287236,-16.110183
20140523,-24.229641,-12.988559
20140522,-21.851191,-10.074216
20140521,-19.404212,-7.288821
20140520,-16.587642,-4.723008
20140519,-13.066717,-2.159073
20140516,-9.657978,0.341769
20140515,-7.63505,2.880856
20140514,-4.27198,5.466226
20140513,-0.192619,7.874081
20140512,1.999449,10.21236
20140509,3.21736,12.468455
20140508,3.688108,14.93997
20140507,6.487772,17.642254
20140506,9.440862,20.48963
20140505,13.193804,23.58619
20140502,15.633281,26.650686
20140501,17.398716,29.729486
20140430,20.851891,32.775418
20140429,22.3043,35.758057
20140428,25.460992,38.629626
20140425,28.008669,41.34452
20140424,32.114159,43.647115
20140423,37.309899,45.348327
20140422,40.774267,46.342073
20140421,43.342485,46.856911
20140417,44.812097,47.34504
20140416,47.695643,47.50405
20140415,48.14842,47.141313
20140414,49.89504,46.593368
20140411,48.732022,45.607333
20140410,47.425069,44.544711
20140409,46.253617,43.411542
20140408,45.407808,42.152381
20140407,47.73564,40.828501
20140404,46.243189,38.928077
20140403,44.431013,36.716303
20140402,43.216917,34.527296
20140401,41.020723,32.495664
20140331,39.168419,30.734441
20140328,37.226552,29.341686
20140327,34.921171,28.14848
20140326,33.492883,27.154108
20140325,30.631826,26.474504
20140324,26.33722,26.185863
20140321,24.729953,26.30224
20140320,24.93223,26.419966
20140319,25.169717,26.346855
20140318,26.633622,25.847989
20140317,26.487694,24.832473
20140314,25.971823,23.418792
20140313,27.376449,21.601872
20140312,28.034059,19.373286
20140311,27.384609,16.601044
20140310,25.789487,13.374738
20140307,24.274231,9.733054
20140306,20.679923,5.620214
20140305,17.493984,1.459191
20140304,13.764561,-2.834701
20140303,9.619547,-7.2273
20140228,7.319177,-11.560349
20140227,3.083879,-16.064863
20140226,-1.65215,-20.388907
20140225,-6.985669,-24.289018
20140224,-12.741323,-27.711709
20140221,-16.769286,-30.336806
20140220,-21.151046,-32.098471
20140219,-25.768825,-32.914443
20140218,-29.377898,-32.562721
20140214,-33.221447,-31.203693
20140213,-35.83252,-28.539389
20140212,-36.75315,-24.516417
20140211,-37.789887,-19.576816
20140210,-36.367198,-13.782981
20140207,-32.624271,-7.404361
20140206,-28.494794,-0.935974
20140205,-22.603327,5.691084
20140204,-17.146644,12.185213
20140203,-9.242708,18.49393
20140131,0.37423,24.471501
20140130,7.703257,29.376131
20140129,14.35463,33.372776
20140128,21.040381,36.435606
20140127,25.591213,38.744432
20140124,31.14872,40.443724
20140123,35.843842,41.50854
20140122,39.631807,41.889253
20140121,44.555432,41.478071
20140117,44.515899,40.135576
20140116,43.673057,38.04304
20140115,41.9201,35.486552
20140114,41.819819,32.50708
20140113,40.884843,28.972809
20140110,40.732062,24.967831
20140109,39.270254,20.236255
20140108,35.931171,14.983721
20140107,32.472976,9.464222
20140106,25.68308,3.965715
20140103,20.664665,-0.998484
20140102,15.104854,-5.405212
20131231,10.011375,-9.489485
20131230,4.840042,-13.243751
20131227,-1.852124,-16.488292
20131226,-8.002546,-19.004829
20131224,-13.744326,-20.401476
20131223,-17.013585,-20.676207
20131220,-18.994714,-20.219511
20131219,-18.995886,-19.304418
20131218,-21.653605,-18.156537
20131217,-23.777017,-16.395103
20131216,-24.360822,-13.94458
20131213,-24.500958,-11.02902
20131212,-20.57237,-7.640262
20131211,-16.216904,-4.478069
20131210,-12.903319,-1.816141
20131209,-10.758885,0.554834
20131206,-8.664956,2.82615
20131205,-5.800698,4.926745
20131204,-1.722309,6.489227
20131203,1.879216,7.179799
20131202,5.997868,6.804199
20131129,7.887369,5.347746
20131127,7.740441,2.996075
20131126,8.435456,0.018398
20131125,9.682963,-3.548542
20131122,10.240398,-7.66622
20131121,8.261642,-12.10705
20131120,4.492835,-16.830902
20131119,-1.501182,-21.487208
20131118,-7.11021,-25.794489
20131115,-13.27767,-29.537716
20131114,-19.058654,-32.738025
20131113,-23.666999,-35.509547
20131112,-27.376143,-37.911007
20131111,-29.727067,-40.071564
20131108,-34.253028,-41.789627
20131107,-37.413918,-43.099822
20131106,-40.266713,-43.758599
20131105,-40.799252,-43.712878
20131104,-42.08045,-43.325394
20131101,-44.002353,-42.533199
20131031,-45.280141,-41.247646
20131030,-46.821158,-39.342345
20131029,-45.189634,-36.703123
20131028,-46.044777,-33.638498
20131025,-43.342917,-30.454887
20131024,-39.855219,-27.358689
20131023,-37.311898,-24.52395
20131022,-34.950692,-21.747059
20131021,-32.432378,-18.746266
20131018,-28.132436,-15.395037
20131017,-23.068153,-11.926624
20131016,-17.608015,-8.520458
20131015,-17.392272,-5.430999
20131014,-15.477141,-1.928353
20131011,-14.342561,1.751071
20131010,-12.319882,5.399184
20131009,-7.943558,8.929051
20131008,-2.271319,11.902665
20131007,3.083285,13.977703
20131004,7.587339,15.231333
20131003,10.197115,15.624927
20131002,14.131545,15.206098
20131001,17.637671,13.735394
20130930,18.490463,11.141686
20130927,19.448915,7.633401
20130926,18.818969,3.386873
20130925,16.404022,-1.46539
20130924,14.365962,-6.672987
20130923,11.129679,-12.209637
20130920,6.427657,-17.928645
20130919,0.895204,-23.482052
20130918,-5.7057,-28.650043
20130917,-13.084102,-33.192961
20130916,-18.76983,-37.004427
20130913,-24.851404,-40.18555
20130912,-30.464346,-42.678011
20130911,-35.463893,-44.520997
20130910,-40.341387,-45.769594
20130909,-43.553008,-46.32343
20130906,-45.616715,-46.245651
20130905,-46.591962,-45.63574
20130904,-47.387298,-44.714245
20130903,-47.399939,-43.586768
20130830,-47.283555,-42.327052
20130829,-47.051219,-40.794032
20130828,-46.701264,-38.808026
20130827,-45.325913,-36.427129
20130826,-42.852994,-33.685619
20130823,-40.127515,-30.902151
20130822,-38.298506,-28.161628
20130821,-37.240009,-25.47149
20130820,-36.062496,-22.649363
20130819,-33.486368,-19.561171
20130816,-29.177168,-16.538668
20130815,-25.273189,-14.019962
20130814,-20.652325,-12.163262
20130813,-17.801783,-11.177033
20130812,-15.462809,-10.701925
20130809,-14.08726,-10.817777
20130808,-11.840866,-11.473476
20130807,-8.268768,-12.702285
20130806,-6.28384,-14.76555
20130805,-6.508817,-17.572427
20130802,-8.562888,-20.933534
20130801,-11.776266,-24.618819
20130731,-13.525812,-28.239559
20130730,-16.505479,-31.78738
20130729,-19.988546,-35.345853
20130726,-22.900152,-38.750502
20130725,-26.838151,-42.138687
20130724,-31.545736,-45.364097
20130723,-36.758772,-48.010058
20130722,-41.730453,-49.965184
20130719,-44.362932,-51.146959
20130718,-45.456195,-51.908884
20130717,-48.53174,-52.491509
20130716,-50.630383,-52.561104
20130715,-53.393817,-52.082275
20130712,-55.866841,-50.630864
20130711,-55.359386,-48.148994
20130710,-54.354912,-44.955789
20130709,-52.366422,-41.280993
20130708,-51.220263,-37.35075
20130705,-50.699816,-32.80765
20130703,-49.158095,-27.476291
20130702,-46.320921,-21.754497
20130701,-40.331116,-15.954856
20130628,-33.530013,-10.728867
20130627,-26.620541,-6.138643
20130626,-21.281748,-2.10367
20130625,-16.994237,1.524202
20130624,-10.332363,4.845806
20130621,-2.717582,7.748074
20130620,2.33805,9.970639
20130619,5.875849,11.701381
20130618,6.702785,12.953929
20130617,7.781999,14.185463
20130614,9.694218,15.412902
20130613,11.369095,16.382204
20130612,12.900206,17.129916
20130611,15.788046,17.520612
20130610,17.285503,17.299047
20130607,17.914731,16.707044
20130606,17.148776,15.791341
20130605,17.786593,14.834594
20130604,18.828948,13.319016
20130603,18.41794,11.118239
20130531,18.098504,8.324961
20130530,16.416467,4.81804
20130529,13.79396,0.64485
20130528,11.957474,-3.769403
20130524,9.673408,-8.555866
20130523,8.538049,-13.499261
20130522,4.146396,-18.948707
20130521,-0.978049,-24.727397
20130520,-6.721557,-30.255759
20130517,-13.463791,-35.556786
20130516,-21.142239,-40.43523
20130515,-25.934314,-44.905429
20130514,-31.120699,-49.209281
20130513,-34.817148,-52.51497
20130510,-40.506961,-54.742431
20130509,-47.861819,-55.727271
20130508,-50.733303,-55.320588
20130507,-54.430802,-53.675016
20130506,-57.369783,-50.635766
20130503,-61.374036,-46.166838
20130502,-64.66898,-40.226532
20130501,-60.871898,-32.750668
20130430,-54.8643,-24.611899
20130429,-49.370517,-16.758922
20130426,-44.201671,-9.161023
20130425,-35.923158,-1.884575
20130424,-27.077553,4.859586
20130423,-17.149426,10.953687
20130422,-7.911282,16.128418
20130419,2.613789,20.513138
20130418,12.377023,24.01882
20130417,15.812493,26.872073
20130416,19.010576,29.8134
20130415,21.286361,32.758775
20130412,24.774293,35.647941
20130411,27.76936,38.248848
20130410,29.423151,40.724416
20130409,31.551196,43.193647
20130408,34.164929,45.685808
20130405,38.056296,47.947315
20130404,42.284437,49.8432
20130403,45.518954,51.301758
20130402,47.288853,52.292842
20130401,48.18246,52.85361
20130328,50.049465,52.981165
20130327,51.646231,52.49564
20130326,53.980644,51.372149
20130325,54.518491,49.312046
20130322,55.119269,46.754389
20130321,55.411457,43.644682
20130320,54.438707,39.977756
20130319,52.335765,35.965539
20130318,49.330452,31.770436
20130315,45.679745,27.633475
20130314,41.534814,23.714327
20130313,35.439714,20.227408
20130312,31.499574,17.372831
20130311,27.131913,15.048747
20130308,22.409119,13.352838
20130307,18.328754,12.530098
20130306,14.579836,12.687053
20130305,12.097807,13.52418
20130304,10.40741,15.129627
20130301,10.152548,17.348129
20130228,9.748514,19.979253
20130227,10.58282,23.049813
20130226,11.868735,26.406519
20130225,15.004458,30.017536
20130222,19.741351,33.504111
20130221,22.113975,36.700764
20130220,26.546835,39.730467
20130219,30.373927,42.387044
20130215,33.832658,44.736515
20130214,37.383556,46.387138
20130213,40.793173,47.233285
20130212,44.367895,47.181142
20130211,46.383628,46.243018
20130208,48.511231,44.502908
20130207,49.381299,41.953774
20130206,50.45603,38.831207
20130205,51.519161,35.046169
20130204,48.688271,30.720578
20130201,44.998881,26.21317
20130131,40.323881,22.037003
20130130,35.924777,18.445444
20130129,30.722642,15.455999
20130128,25.569028,13.255431
20130125,21.278188,11.653656
20130124,16.390689,10.524432
20130123,12.588848,9.930642
20130122,8.121596,9.836625
20130118,7.413377,10.295738
20130117,7.99985,10.78282
20130116,9.019776,11.20298
20130115,10.917528,11.50712
20130114,11.153055,11.63261
20130111,11.115167,11.584661
20130110,11.046582,11.536794
20130109,11.742696,11.535435
20130108,12.253611,11.387979
20130107,11.797113,11.175692
20130104,11.781289,10.900059
20130103,11.757036,10.330592
20130102,12.046945,9.336629
20121231,10.721508,7.79834
20121228,10.684368,5.905391
20121227,11.034349,3.620614
20121226,10.41559,0.980557
20121224,10.34303,-1.977858
20121221,9.316417,-5.391726
20121220,6.656088,-9.191471
20121219,2.811369,-13.12488
20121218,-1.797656,-17.059616
20121217,-6.315033,-20.90724
20121214,-9.878625,-24.496896
20121213,-12.726166,-27.87367
20121212,-16.210149,-31.23188
20121211,-20.381781,-34.553078
20121210,-24.881289,-37.883686
20121207,-28.744588,-41.008718
20121206,-32.601259,-43.98634
20121205,-36.426274,-46.976231
20121204,-38.621932,-50.007613
20121203,-40.26959,-53.079754
20121130,-42.950056,-56.081877
20121129,-46.100932,-58.988491
20121128,-50.357252,-61.53834
20121127,-53.006578,-63.318321
20121126,-55.543186,-64.513304
20121123,-59.510278,-65.333848
20121121,-63.708715,-65.695894
20121120,-66.271198,-65.415317
20121119,-67.288697,-64.380295
20121116,-69.109579,-62.738359
20121115,-69.049578,-60.590159
20121114,-66.377083,-58.106818
20121113,-63.761426,-55.305747
20121112,-62.92808,-51.942121
20121109,-62.76869,-47.759164
20121108,-61.183518,-42.648718
20121107,-56.956008,-36.813536
20121106,-52.511269,-30.537121
20121105,-49.775775,-23.828171
20121102,-46.699514,-16.561931
20121101,-41.167443,-8.751941
20121031,-33.488794,-0.746697
20121026,-25.281464,6.948134
20121025,-16.774678,13.783404
20121024,-8.666879,19.87896
20121023,-0.468277,25.262673
20121022,7.869285,29.953326
20121019,15.620384,33.870054
20121018,23.5904,37.046448
20121017,30.879754,39.355072
20121016,35.764683,40.921989
20121015,36.235966,41.980235
20121012,38.085326,42.8944
20121011,39.786539,43.525507
20121010,41.747599,43.783654
20121009,43.119834,43.778937
20121008,44.20793,43.675934
20121005,44.368021,43.380501
20121004,44.982001,42.894246
20121003,45.288898,42.060356
20121002,44.463448,40.718381
20121001,43.765295,39.171752
20120928,42.109858,37.321983
20120927,41.705148,35.24331
20120926,42.192804,32.848048
20120925,41.549033,29.995468
20120924,39.991728,26.87161
20120921,37.476989,23.70568
20120920,33.211126,20.674339
20120919,30.54379,18.163944
20120918,27.117374,15.953576
20120917,23.401799,14.138744
20120914,20.147791,13.007644
20120913,16.519584,12.607973
20120912,13.434312,13.064599
20120911,11.498354,14.302831
20120910,10.194917,16.105547
20120907,10.617572,18.446607
20120906,10.650484,21.0779
20120905,10.783884,23.923624
20120904,13.221899,26.796528
20120831,16.550753,29.450926
20120830,20.629216,31.832762
20120829,24.578401,33.708362
20120828,27.722794,35.099551
20120827,31.264463,35.97937
20120824,34.299205,36.239545
20120823,36.261997,35.91339
20120822,36.640027,35.059186
20120821,37.11148,33.883868
20120820,37.987278,32.320899
20120817,37.509616,30.079869
20120816,37.0991,27.127317
20120815,35.641162,23.605264
20120814,33.606039,19.754483
20120813,31.363809,15.871185
20120810,28.574161,11.711203
20120809,26.062168,7.158642
20120808,23.044756,2.24873
20120807,17.818011,-2.894785
20120806,10.936645,-7.965942
20120803,5.400622,-12.562868
20120802,0.984138,-16.711585
20120801,-1.343648,-20.463969
20120731,-6.076024,-24.158335
20120730,-12.398886,-27.378923
20120727,-18.127044,-29.610447
20120726,-23.246882,-30.676297
20120725,-27.822402,-30.704913
20120724,-30.435687,-30.045084
20120723,-31.937834,-28.593231
20120720,-32.787313,-26.583627
20120719,-34.59294,-24.144577
20120718,-35.061319,-21.296997
20120717,-32.482598,-18.452185
20120716,-27.719699,-16.001969
20120713,-23.504428,-14.245602
20120712,-21.883934,-13.17104
20120711,-17.36901,-12.378995
20120710,-13.851398,-12.092343
20120709,-10.835867,-12.307173
20120706,-8.964724,-12.955845
20120705,-9.458011,-14.074402
20120703,-10.430646,-15.323594
20120702,-11.912404,-16.590414
20120629,-13.833362,-18.142876
20120628,-14.755533,-20.00833
20120627,-14.789138,-22.391416
20120626,-15.784873,-25.370136
20120625,-16.673911,-28.44485
20120622,-19.031738,-31.45727
20120621,-20.700742,-34.270692
20120620,-21.832025,-36.995587
20120619,-25.884561,-39.733078
20120618,-30.622453,-42.122459
20120615,-36.2033,-44.045773
20120614,-41.597621,-45.08614
20120613,-43.457295,-45.244269
20120612,-43.785698,-44.827641
20120611,-44.352529,-44.072776
20120608,-45.224803,-43.036064
20120607,-46.469445,-41.654574
20120606,-47.388991,-39.701961
20120605,-47.932273,-37.270055
20120604,-45.566602,-34.373068
20120601,-43.020787,-31.496995
20120531,-39.707639,-28.616848
20120530,-36.991919,-25.679722
20120529,-35.022115,-22.671154
20120525,-32.791394,-19.572035
20120524,-28.895929,-16.352491
