D,PPO,PPO Signal
20141231,-0.44790307,-0.851462663
20141230,-0.510284925,-0.952352561
20141229,-0.557671437,-1.06286947
20141226,-0.639298017,-1.189168978
20141224,-0.850769074,-1.326636718
20141223,-1.075345376,-1.445603629
20141222,-1.373469891,-1.538168192
20141219,-1.682944421,-1.579342768
20141218,-1.864915717,-1.553442355
20141217,-2.016564664,-1.475574014
20141216,-1.812184226,-1.340326352
20141215,-1.496019493,-1.222361883
20141212,-1.180341396,-1.153947481
20141211,-0.910349178,-1.147349002
20141210,-0.910900551,-1.206598957
20141209,-0.863628026,-1.280523559
20141208,-0.945900289,-1.384747442
20141205,-0.966618472,-1.494459231
20141204,-1.067084421,-1.62641942
20141203,-1.228462823,-1.76625317
20141202,-1.445922094,-1.900700757
20141201,-1.586592507,-2.014395422
20141128,-1.672357242,-2.121346151
20141126,-1.797047392,-2.233593378
20141125,-1.91639051,-2.342729875
20141124,-2.029131611,-2.449314716
20141121,-2.168058832,-2.554360492
20141120,-2.237442088,-2.650935907
20141119,-2.276802772,-2.754309362
20141118,-2.343889157,-2.873686009
20141117,-2.424690658,-3.006135222
20141114,-2.633443997,-3.151496363
20141113,-2.861592139,-3.281009455
20141112,-3.026611315,-3.385863784
20141111,-3.140211478,-3.475676901
20141110,-3.325469442,-3.559543257
20141107,-3.525835651,-3.61806171
20141106,-3.644059958,-3.641118225
20141105,-3.706609425,-3.640382792
20141104,-3.757170219,-3.623826134
20141103,-3.820272737,-3.590490112
20141031,-3.951088535,-3.533044456
20141030,-4.065074206,-3.428533436
20141029,-4.150998087,-3.269398244
20141028,-4.150646377,-3.048998283
20141027,-4.103083827,-2.77358626
20141024,-3.887501284,-2.441211868
20141023,-3.578031396,-2.079639514
20141022,-3.148790631,-1.705041543
20141021,-2.547821774,-1.344104271
20141020,-1.842699372,-1.043174896
20141017,-1.257889606,-0.843293777
20141016,-1.212230836,-0.739644819
20141015,-1.016397764,-0.621498315
20141014,-0.857779742,-0.522773453
20141013,-0.755491301,-0.43902188
20141010,-0.599684791,-0.359904525
20141009,-0.523121878,-0.299959459
20141008,-0.444604115,-0.244168854
20141007,-0.496346148,-0.194060038
20141006,-0.359001277,-0.118488511
20141003,-0.357603137,-0.05836032
20141002,-0.330830378,0.016450385
20141001,-0.197815917,0.103270576
20140930,-0.039616313,0.178542199
20140929,0.020758622,0.233081827
20140926,0.107537932,0.286162628
20140925,0.194298897,0.330818803
20140924,0.357771363,0.364948779
20140923,0.386231572,0.366743133
20140922,0.453492293,0.361871023
20140919,0.453830696,0.338965706
20140918,0.400379363,0.310249458
20140917,0.339379549,0.287716982
20140916,0.306908507,0.27480134
20140915,0.252362906,0.266774549
20140912,0.240234985,0.270377459
20140911,0.249488899,0.277913078
20140910,0.23419315,0.285019123
20140909,0.220829927,0.297725616
20140908,0.283264511,0.316949538
20140905,0.350818954,0.325370795
20140904,0.375436665,0.319008755
20140903,0.429114561,0.304901778
20140902,0.423689052,0.273848582
20140829,0.431347809,0.236388464
20140828,0.395286621,0.187648628
20140827,0.35939567,0.13573913
20140826,0.294821411,0.079824995
20140825,0.168148243,0.026075891
20140822,0.101963433,-0.009442197
20140821,0.056227563,-0.037293605
20140820,-0.047221029,-0.060673897
20140819,-0.117802314,-0.064037114
20140818,-0.204634499,-0.050595814
20140815,-0.274182326,-0.012086142
20140814,-0.25192543,0.053437904
20140813,-0.246914168,0.129778737
20140812,-0.24073128,0.223951964
20140811,-0.196461699,0.340122775
20140808,-0.144212085,0.474268893
20140807,-0.030367623,0.628889138
20140806,0.239887808,0.793703328
20140805,0.490893179,0.932157208
20140804,0.743166329,1.042473215
20140801,0.91903526,1.117299936
20140731,1.155999298,1.166866105
20140730,1.308252181,1.169582807
20140729,1.360339222,1.134915464
20140728,1.376581539,1.078559524
20140725,1.312481481,1.00405402
20140724,1.284094176,0.926947155
20140723,1.183504554,0.8376604
20140722,1.122974517,0.751199361
20140721,1.003740265,0.658255572
20140718,1.010539918,0.571884399
20140717,0.915073494,0.462220519
20140716,0.779462775,0.349007276
20140715,0.600859469,0.241393401
20140714,0.574104928,0.151526884
20140711,0.456502782,0.045882373
20140710,0.401021861,-0.056772729
20140709,0.340583375,-0.171221377
20140708,0.218655019,-0.299172565
20140707,0.125464954,-0.428629461
20140703,-0.040882487,-0.567153065
20140702,-0.28042126,-0.69872071
20140701,-0.575336616,-0.803295572
20140630,-0.830579632,-0.860285311
20140627,-0.860631238,-0.867711731
20140626,-0.91111604,-0.869481854
20140625,-0.887650897,-0.859073307
20140624,-0.864623068,-0.85192891
20140623,-0.831889228,-0.84875537
20140620,-0.848257942,-0.852971906
20140619,-0.824268595,-0.854150397
20140618,-0.852242686,-0.861620847
20140617,-0.918801171,-0.863965388
20140616,-0.916306769,-0.850256442
20140613,-0.905026115,-0.83374386
20140612,-0.889340327,-0.815923296
20140611,-0.783048967,-0.797569038
20140610,-0.693344714,-0.801199056
20140609,-0.681021243,-0.828162641
20140606,-0.761157784,-0.864947991
20140605,-0.860568115,-0.890895542
20140604,-0.953538676,-0.898477399
20140603,-0.977799954,-0.88471208
20140602,-0.987055544,-0.861440111
20140530,-1.056851918,-0.830036253
20140529,-1.057979552,-0.773332337
20140528,-1.011681041,-0.702170533
20140527,-0.90157809,-0.624792906
20140523,-0.841037308,-0.55559661
20140522,-0.81481461,-0.484236436
20140521,-0.755800515,-0.401591892
20140520,-0.70822395,-0.313039736
20140519,-0.557027002,-0.214243683
20140516,-0.469993903,-0.128547853
20140515,-0.35576363,-0.043186341
20140514,-0.17342074,0.034957982
20140513,-0.059159498,0.087052662
20140512,-0.097056826,0.123605702
20140509,-0.164253149,0.178771334
20140508,-0.115165462,0.264527455
20140507,0.011168756,0.359450685
20140506,0.151228494,0.446521167
20140505,0.288871504,0.520344335
20140502,0.395219481,0.578212543
20140501,0.515640794,0.623960808
20140430,0.55170346,0.651040812
20140429,0.434525498,0.67587515
20140428,0.349999515,0.736212563
20140425,0.341097095,0.832765824
20140424,0.51055088,0.955683007
20140423,0.688001318,1.066966039
20140422,0.824748504,1.161707219
20140421,0.965168752,1.245946897
20140417,1.124060477,1.316141433
20140416,1.429101612,1.364161673
20140415,1.462717175,1.347926688
20140414,1.451336329,1.319229066
20140411,1.375373157,1.28620225
20140410,1.393643428,1.263909523
20140409,1.370268637,1.231476047
20140408,1.268677897,1.1967779
20140407,1.297748536,1.1788029
20140404,1.250001413,1.149066491
20140403,1.317142683,1.123832761
20140402,1.334319477,1.07550528
20140401,1.290270486,1.010801731
20140331,1.163218322,0.940934542
20140328,1.091155884,0.885363597
20140327,1.092853708,0.833915526
20140326,1.11237515,0.76918098
20140325,0.969258918,0.683382438
20140324,0.638500237,0.611913318
20140321,0.576580379,0.605266588
20140320,0.575575838,0.61243814
20140319,0.498174845,0.621653716
20140318,0.56738983,0.652523434
20140317,0.531932565,0.673806835
20140314,0.533854599,0.709275402
20140313,0.726746451,0.753130603
20140312,0.869347555,0.759726641
20140311,0.911321695,0.732321412
20140310,0.921860341,0.687571342
20140307,0.942078185,0.628999092
20140306,0.882837084,0.550729319
20140305,0.79596592,0.467702378
20140304,0.700479119,0.385636492
20140303,0.606605082,0.306925835
20140228,0.598823923,0.232006024
20140227,0.529286865,0.140301549
20140226,0.42682147,0.04305522
20140225,0.357090682,-0.052886343
20140224,0.309170703,-0.155380599
20140221,0.230977376,-0.271518424
20140220,0.16469193,-0.397142375
20140219,-0.005392581,-0.537600951
20140218,-0.148975371,-0.670653043
20140214,-0.344076472,-0.801072461
20140213,-0.617141722,-0.915321458
20140212,-0.851960218,-0.989866392
20140211,-1.048116537,-1.024342936
20140210,-1.252384579,-1.018399536
20140207,-1.348103758,-0.959903275
20140206,-1.456999582,-0.862853154
20140205,-1.427259931,-0.714316547
20140204,-1.344921957,-0.536080701
20140203,-1.142234939,-0.333870387
20140131,-0.872995712,-0.131779248
20140130,-0.731797488,0.053524867
20140129,-0.580196589,0.249855456
20140128,-0.325956952,0.457368468
20140127,-0.023716313,0.653199822
20140124,0.30229224,0.822428856
20140123,0.616562273,0.95246301
20140122,0.838469671,1.036438195
20140121,1.135323957,1.085930326
20140117,1.160664462,1.073581918
20140116,1.085067346,1.051811282
20140115,1.044817094,1.043497266
20140114,1.033700983,1.043167309
20140113,1.104208438,1.045533891
20140110,1.274814131,1.030865254
20140109,1.30384105,0.969878034
20140108,1.314993539,0.88638728
20140107,1.277081597,0.779235716
20140106,1.112860606,0.654774246
20140103,1.091455622,0.540252655
20140102,1.012088785,0.402451914
20131231,0.957161929,0.250042696
20131230,0.758101471,0.073262888
20131227,0.556360827,-0.097946758
20131226,0.364296128,-0.261523655
20131224,0.097145107,-0.4179786
20131223,-0.12554987,-0.546759527
20131220,-0.352341201,-0.652061941
20131219,-0.510655921,-0.726992127
20131218,-0.717023964,-0.781076178
20131217,-0.882756155,-0.797089231
20131216,-0.912127864,-0.7756725
20131213,-1.056729908,-0.74155866
20131212,-0.935365602,-0.662765847
20131211,-0.800720101,-0.594615909
20131210,-0.72281826,-0.543089861
20131209,-0.722868887,-0.498157761
20131206,-0.73193983,-0.441979979
20131205,-0.744947126,-0.369490017
20131204,-0.660487483,-0.275625739
20131203,-0.524454626,-0.179410304
20131202,-0.363321472,-0.093149223
20131129,-0.232118804,-0.025606161
20131127,-0.185446693,0.026022
20131126,-0.083441547,0.078889173
20131125,0.140533626,0.119471853
20131122,0.332499074,0.11420641
20131121,0.440836586,0.059633244
20131120,0.415085926,-0.035667591
20131119,0.316868642,-0.148355971
20131118,0.183088755,-0.264662124
20131115,0.052875541,-0.376599843
20131114,-0.042551865,-0.48396869
20131113,-0.108762438,-0.594322896
20131112,-0.267297959,-0.71571301
20131111,-0.439013088,-0.827816773
20131108,-0.641378739,-0.925017694
20131107,-0.726643125,-0.995927433
20131106,-0.825451768,-1.06324851
20131105,-0.893573236,-1.122697695
20131104,-0.891569042,-1.17997881
20131101,-1.013332389,-1.252081252
20131031,-1.094999166,-1.311768468
20131030,-1.182187311,-1.365960794
20131029,-1.329572221,-1.411904164
20131028,-1.61017991,-1.43248715
20131025,-1.673665418,-1.38806396
20131024,-1.702343938,-1.316663596
20131023,-1.768527241,-1.22024351
20131022,-1.713064291,-1.083172578
20131021,-1.573911939,-0.925699649
20131018,-1.25812996,-0.763646577
20131017,-0.892782968,-0.640025731
20131016,-0.476420392,-0.576836422
20131015,-0.594190468,-0.601940429
20131014,-0.622085101,-0.60387792
20131011,-0.775652754,-0.599326124
20131010,-0.915823239,-0.555244467
20131009,-1.004792233,-0.465099774
20131008,-0.913926737,-0.330176659
20131007,-0.643387528,-0.18423914
20131004,-0.470448546,-0.069452043
20131003,-0.357518783,0.030797083
20131002,-0.195767881,0.127876049
20131001,-0.046665602,0.208787032
20130930,0.06725463,0.27265019
20130927,0.275900486,0.32399908
20130926,0.444237456,0.336023729
20130925,0.475650919,0.308970297
20130924,0.549019323,0.267300142
20130923,0.607905235,0.196870347
20130920,0.619572374,0.094111624
20130919,0.67739593,-0.037253563
20130918,0.560435701,-0.215915937
20130917,0.346602171,-0.410003846
20130916,0.189516974,-0.59915535
20130913,-0.068346823,-0.796323431
20130912,-0.344484146,-0.978317583
20130911,-0.614310832,-1.136775942
20130910,-0.9490734,-1.26739222
20130909,-1.137262777,-1.346971925
20130906,-1.271513516,-1.399399212
20130905,-1.316769707,-1.431370636
20130904,-1.417283853,-1.460020868
20130903,-1.468845867,-1.470705122
20130830,-1.559196924,-1.471169936
20130829,-1.559166826,-1.449163189
20130828,-1.557427481,-1.421662279
20130827,-1.507086097,-1.387720979
20130826,-1.453636353,-1.357879699
20130823,-1.473977023,-1.333940535
20130822,-1.515868005,-1.298931413
20130821,-1.535198785,-1.244697265
20130820,-1.520255309,-1.172071886
20130819,-1.463732187,-1.08502603
20130816,-1.353772916,-0.99034949
20130815,-1.254742424,-0.899493634
20130814,-1.135476019,-0.810681437
20130813,-1.060612438,-0.729482791
20130812,-0.997708052,-0.646700379
20130809,-0.939075437,-0.558948461
20130808,-0.78430582,-0.463916716
20130807,-0.582584555,-0.383819441
20130806,-0.351296405,-0.334128162
20130805,-0.179153112,-0.329836101
20130802,-0.192060886,-0.367506848
20130801,-0.188049488,-0.411368339
20130731,-0.214027064,-0.467198052
20130730,-0.20400393,-0.530490799
20130729,-0.238719119,-0.612112516
20130726,-0.289965191,-0.705460865
20130725,-0.410562158,-0.809334784
20130724,-0.55185158,-0.90902794
20130723,-0.692391457,-0.99832203
20130722,-0.776454567,-1.074804673
20130719,-0.825882089,-1.1493922
20130718,-0.848246121,-1.230269727
20130717,-1.097271168,-1.325775629
20130716,-1.218948827,-1.382901744
20130715,-1.319796477,-1.423889973
20130712,-1.437187809,-1.449913347
20130711,-1.465071202,-1.453094731
20130710,-1.517906154,-1.450100613
20130709,-1.534876521,-1.433149228
20130708,-1.485358629,-1.407717405
20130705,-1.592660611,-1.388307099
20130703,-1.703920266,-1.337218721
20130702,-1.734075124,-1.245543335
20130701,-1.657496871,-1.123410388
20130628,-1.526005693,-0.989888767
20130627,-1.329525083,-0.855859535
20130626,-1.293653329,-0.737443148
20130625,-1.189649467,-0.598390603
20130624,-1.047066158,-0.450575887
20130621,-0.778928448,-0.301453319
20130620,-0.524643112,-0.182084537
20130619,-0.289120075,-0.096444894
20130618,-0.214358815,-0.048276098
20130617,-0.261944952,-0.006755419
20130614,-0.227675401,0.057041964
20130613,-0.138937726,0.128221306
20130612,-0.1018706,0.195011063
20130611,0.074289679,0.269231479
20130610,0.159983338,0.317966929
20130607,0.215526886,0.357462827
20130606,0.217526311,0.392946813
20130605,0.342922418,0.436801938
20130604,0.550019135,0.460271818
20130603,0.636323816,0.437834989
20130531,0.601373653,0.388212782
20130530,0.593644786,0.334922564
20130529,0.508801748,0.270242009
20130528,0.463930559,0.210602074
20130524,0.406616415,0.147269953
20130523,0.42952848,0.082433337
20130522,0.430681875,-0.004340449
20130521,0.384605925,-0.11309603
20130520,0.237331525,-0.237521518
20130517,0.097626543,-0.356234779
20130516,-0.124778175,-0.46970011
20130515,-0.219342115,-0.555930593
20130514,-0.268112149,-0.640077713
20130513,-0.320937634,-0.733069104
20130510,-0.346500384,-0.836101972
20130509,-0.474662383,-0.958502368
20130508,-0.5694805,-1.079462365
20130507,-0.761933547,-1.206957831
20130506,-0.936538215,-1.318213902
20130503,-1.102803919,-1.413632824
20130502,-1.386743885,-1.49134005
20130501,-1.621378462,-1.517489091
20130430,-1.756748138,-1.491516749
20130429,-2.052095803,-1.425208902
20130426,-2.226225033,-1.268487176
20130425,-2.170060148,-1.029052712
20130424,-2.050782522,-0.743800853
20130423,-1.759303725,-0.417055436
20130422,-1.362554326,-0.081493363
20130419,-0.658041333,0.238771877
20130418,0.131061217,0.46297518
20130417,0.299043921,0.545953671
20130416,0.387221165,0.607681108
20130415,0.381724436,0.662796094
20130412,0.501320443,0.733064008
20130411,0.544475287,0.7909999
20130410,0.517350653,0.852631053
20130409,0.519475164,0.936451153
20130408,0.648797469,1.04069515
20130405,0.799549494,1.13866957
20130404,0.975946488,1.223449589
20130403,1.095575761,1.285325365
20130402,1.167486609,1.332762766
20130401,1.160391487,1.374081805
20130328,1.22950416,1.427504384
20130327,1.255356705,1.47700444
20130326,1.386182138,1.532416374
20130325,1.462092174,1.568974933
20130322,1.615818042,1.595695622
20130321,1.723886895,1.590665017
20130320,1.827928746,1.557359548
20130319,1.798301126,1.489717248
20130318,1.811798131,1.412571279
20130315,1.8130083,1.312764566
20130314,1.703521341,1.187703632
20130313,1.493384225,1.058749205
20130312,1.384953483,0.95009045
20130311,1.299583662,0.841374691
20130308,1.193764585,0.726822449
20130307,1.024882987,0.610086915
20130306,0.84059803,0.506387896
20130305,0.643659307,0.422835363
20130304,0.474804692,0.367629377
20130301,0.319206944,0.340835548
20130228,0.231126336,0.346242699
20130227,0.220958001,0.37502179
20130226,0.128308436,0.413537737
20130225,0.170663271,0.484845063
20130222,0.305188599,0.563390511
20130221,0.290268089,0.627940988
20130220,0.407373463,0.712359213
20130219,0.501060514,0.788605651
20130215,0.562076613,0.860491935
20130214,0.598285574,0.935095766
20130213,0.70329907,1.019298314
20130212,0.804801483,1.098298124
20130211,0.925203373,1.171672285
20130208,1.059372645,1.233289513
20130207,1.138317879,1.27676873
20130206,1.320695118,1.311381442
20130205,1.469625858,1.309053024
20130204,1.548901808,1.268909815
20130201,1.576709585,1.198911817
20130131,1.518092174,1.104462375
20130130,1.527489729,1.001054925
20130129,1.493639295,0.869446224
20130128,1.408212614,0.713397957
20130125,1.224137093,0.539694292
20130124,0.966678858,0.368583592
20130123,0.649303888,0.219059776
20130122,0.215153543,0.111498748
20130118,0.109433107,0.085585049
20130117,0.057512175,0.079623034
20130116,0.033595748,0.085150749
20130115,0.058489029,0.098039499
20130114,0.094147587,0.107927117
20130111,0.131954417,0.111371999
20130110,0.081836959,0.106226395
20130109,0.09943377,0.112323754
20130108,0.149964293,0.11554625
20130107,0.183284162,0.106941739
20130104,0.208923803,0.087856133
20130103,0.193830939,0.057589215
20130102,0.104177031,0.023528785
20121231,-0.069177957,0.003366723
20121228,-0.035635856,0.021502893
20121227,0.098532884,0.03578758
20121226,0.116128463,0.020101255
20121224,0.176997904,-0.003905547
20121221,0.228357719,-0.04913141
20121220,0.236817214,-0.118503693
20121219,0.172924572,-0.207333919
20121218,0.072289719,-0.302398542
20121217,-0.089845996,-0.396070607
20121214,-0.18602037,-0.47262676
20121213,-0.207337162,-0.544278358
20121212,-0.243746216,-0.628513657
20121211,-0.337710868,-0.724705517
20121210,-0.51940771,-0.821454179
20121207,-0.65970187,-0.896965796
20121206,-0.793432883,-0.956281778
20121205,-0.832283246,-0.996994001
20121204,-0.813786763,-1.03817169
20121203,-0.81645723,-1.094267922
20121130,-0.814564406,-1.163720595
20121129,-0.831874862,-1.251009642
20121128,-0.919607588,-1.355793337
20121127,-1.042135606,-1.464839774
20121126,-1.143400653,-1.570515816
20121123,-1.34389437,-1.677294607
20121121,-1.612817097,-1.760644667
20121120,-1.76147648,-1.797601559
20121119,-1.867361184,-1.806632829
20121116,-2.036898225,-1.79145074
20121115,-2.041852953,-1.730088868
20121114,-1.961842982,-1.652147847
20121113,-1.815426141,-1.574724064
20121112,-1.75266909,-1.514548544
20121109,-1.697408457,-1.455018408
20121108,-1.624003628,-1.394420896
20121107,-1.532200417,-1.337025213
20121106,-1.449358106,-1.288231411
20121105,-1.526190767,-1.247949738
20121102,-1.554131475,-1.17838948
20121101,-1.531056807,-1.084453982
20121031,-1.671803064,-0.972803275
20121026,-1.692128944,-0.798053328
20121025,-1.629465453,-0.574534424
20121024,-1.441974038,-0.310801667
20121023,-1.140071751,-0.028008574
20121022,-0.769352244,0.250007221
20121019,-0.447436794,0.504847087
20121018,0.018158174,0.742918057
20121017,0.528222444,0.924108028
20121016,0.889594531,1.023079424
20121015,0.829380401,1.056450647
20121012,0.841646363,1.113218208
20121011,0.900454167,1.18111117
20121010,1.062591666,1.251275421
20121009,1.251144378,1.298446359
20121008,1.367363764,1.310271854
20121005,1.406090882,1.295998877
20121004,1.396884752,1.268475876
20121003,1.373998485,1.236373657
20121002,1.318091511,1.20196745
20121001,1.259744252,1.172936434
20120928,1.134599351,1.15123448
20120927,1.107537586,1.155393262
20120926,1.133257187,1.167357181
20120925,1.244786781,1.17588218
20120924,1.320121793,1.158656029
20120921,1.381480661,1.118289588
20120920,1.404970785,1.05249182
